1580 
1580 
1580 
1580 
1580 
1580 
1580 
1580 
1580 
1580 
1580 
1579 
1579 
1578 
1577 
1576 
1574 
1572 
1568 
1563 
1559 
1556 
1555 
1555 
1557 
1561 
1566 
1573 
1582 
1593 
1606 
1620 
1635 
1651 
1667 
1684 
1702 
1721 
1743 
1766 
1791 
1817 
1843 
1868 
1893 
1916 
1937 
1953 
1965 
1971 
1969 
1962 
1948 
1929 
1906 
1878 
1847 
1813 
1777 
1740 
1702 
1666 
1630 
1596 
1563 
1532 
1502 
1475 
1452 
1432 
1416 
1405 
1399 
1398 
1401 
1408 
1420 
1436 
1455 
1477 
1499 
1522 
1543 
1563 
1580 
1596 
1608 
1618 
1626 
1631 
1632 
1631 
1629 
1626 
1621 
1616 
1611 
1605 
1598 
1590 
1583 
1576 
1568 
1562 
1556 
1550 
1544 
1540 
1536 
1535 
1535 
1536 
1580 
1580 
1580 
1580 
1580 
1580 
1580 
1580 
1580 
1580 
1580 
1580 
1580 
1580 
1580 
1580 
1580 
1580 
1580 
1580 
1580 
1580 
1580 
1580 
1580 
1580 
1580 
1580 
1580 
1580 
1580 
1580 
1580 
1580 
1580 
1580 
1580 
1580 
1580 
1580 
1580 
1580 
1580 
1580 
1580 
1580 
1580 
1580 
1580 
1580 
1580 
1580 
1580 
1580 
1580 
1580 
1580 
1580 
1580 
1580 
1580 
1580 
1580 
1580 
1580 
1580 
1580 
1580 
1580 
1580 
1580 
1580 
1580 
1580 
1580 
1580 
1580 
1580 
1580 
1580 
1580 
1580 
1580 
1580 
1580 
1580 
1580 
1580 
1580 
1580 
1580 
1580 
1580 
1580 
1580 
1580 
1580 
1580 
1580 
1580 
1580 
1580 
1580 
1580 
1580 
1580 
1580 
1580 
1580 
1580 
1580 
1580 
1580 
1580 
1580 
1580 
1580 
1580 
1580 
1580 
1580 
1580 
1580 
1580 
1580 
1580 
1580 
1580 
1580 
1580 
1580 
1580 
1580 
1580 
1580 
1580 
1580 
1580 
1580 
1580 
1580 
1580 
1580 
1580 
1580 
1580 
1580 
1580 
1580 
1580 
1580 
1580 
1580 
1580 
1580 
1580 
1580 
1580 
1580 
1580 
1580 
1580 
1580 
1580 
1580 
1580 
1580 
1580 
1580 
1580 
1580 
1580 
1580 
1580 
1580 
1580 
1580 
1580 
1580 
1580 
1580 
1580 
1580 
1580 
1580 
1580 
1580 
1580 
1580 
1580 
1579 
1579 
1578 
1577 
1576 
1574 
1572 
1568 
1563 
1559 
1556 
1555 
1555 
1557 
1561 
1566 
1573 
1582 
1593 
1606 
1620 
1635 
1651 
1667 
1684 
1702 
1721 
1743 
1766 
1791 
1817 
1843 
1868 
1893 
1916 
1937 
1953 
1965 
1971 
1969 
1962 
1948 
1929 
1906 
1878 
1847 
1813 
1777 
1740 
1702 
1666 
1630 
1596 
1563 
1532 
1502 
1475 
1452 
1432 
1416 
1405 
1399 
1398 
1401 
1408 
1420 
1436 
1455 
1477 
1499 
1522 
1543 
1563 
1580 
1596 
1608 
1618 
1626 
1631 
1632 
1631 
1629 
1626 
1621 
1616 
1611 
1605 
1598 
1590 
1583 
1576 
1568 
1562 
1556 
1550 
1544 
1540 
1536 
1535 
1535 
1536 
1580 
1580 
1580 
1580 
1580 
1580 
1580 
1580 
1580 
1580 
1580 
1580 
1580 
1580 
1580 
1580 
1580 
1580 
1580 
1580 
1580 
1580 
1580 
1580 
1580 
1580 
1580 
1580 
1580 
1580 
1580 
1580 
1580 
1580 
1580 
1580 
1580 
1580 
1580 
1580 
1580 
1580 
1580 
1580 
1580 
1580 
1580 
1580 
1580 
1580 
1580 
1580 
1580 
1580 
1580 
1580 
1580 
1580 
1580 
1580 
1580 
1580 
1580 
1580 
1580 
1580 
1580 
1580 
1580 
1580 
1580 
1580 
1580 
1580 
1580 
1580 
1580 
1580 
1580 
1580 
1580 
1580 
1580 
1580 
1580 
1580 
1580 
1580 
1580 
1580 
1580 
1580 
1580 
1580 
1580 
1580 
1580 
1580 
1580 
1580 
1580 
1580 
1580 
1580 
1580 
1580 
1580 
1580 
1580 
1580 
1580 
1580 
1580 
1580 
1580 
1580 
1580 
1580 
1580 
1580 
1580 
1580 
1580 
1580 
1580 
1580 
1580 
1580 
1580 
1580 
1580 
1580 
1580 
1580 
1580 
1580 
1580 
1580 
1580 
1580 
1580 
1580 
1580 
1580 
1580 
1580 
1580 
1580 
1580 
1580 
1580 
1580 
1580 
1580 
1580 
1580 
1580 
1580 
1580 
1580 
1580 
1580 
1580 
1580 
1580 
1580 
1580 
1580 
1580 
1580 
1580 
1580 
1580 
1580 
1580 
1580 
1580 
1580 
1580 
1580 
1580 
1580 
1580 
1580 
1580 
1580 
1580 
1580 
1580 
1580 
1580 
1579 
1579 
1578 
1577 
1576 
1574 
1572 
1568 
1563 
1559 
1556 
1555 
1555 
1557 
1561 
1566 
1573 
1582 
1593 
1606 
1620 
1635 
1651 
1667 
1684 
1702 
1721 
1743 
1766 
1791 
1817 
1843 
1868 
1893 
1916 
1937 
1953 
1965 
1971 
1969 
1962 
1948 
1929 
1906 
1878 
1847 
1813 
1777 
1740 
1702 
1666 
1630 
1596 
1563 
1532 
1502 
1475 
1452 
1432 
1416 
1405 
1399 
1398 
1401 
1408 
1420 
1436 
1455 
1477 
1499 
1522 
1543 
1563 
1580 
1596 
1608 
1618 
1626 
1631 
1632 
1631 
1629 
1626 
1621 
1616 
1611 
1605 
1598 
1590 
1583 
1576 
1568 
1562 
1556 
1550 
1544 
1540 
1536 
1535 
1535 
1536 
1580 
1580 
1580 
1580 
1580 
1580 
1580 
1580 
1580 
1580 
1580 
1580 
1580 
1580 
1580 
1580 
1580 
1580 
1580 
1580 
1580 
1580 
1580 
1580 
1580 
1580 
1580 
1580 
1580 
1580 
1580 
1580 
1580 
1580 
1580 
1580 
1580 
1580 
1580 
1580 
1580 
1580 
1580 
1580 
1580 
1580 
1580 
1580 
1580 
1580 
1580 
1580 
1580 
1580 
1580 
1580 
1580 
1580 
1580 
1580 
1580 
1580 
1580 
1580 
1580 
1580 
1580 
1580 
1580 
1580 
1580 
1580 
1580 
1580 
1580 
1580 
1580 
1580 
1580 
1580 
1580 
1580 
1580 
1580 
1580 
1580 
1580 
1580 
1580 
1580 
1580 
1580 
1580 
1580 
1580 
1580 
1580 
1580 
1580 
1580 
1580 
1580 
1580 
1580 
1580 
1580 
1580 
1580 
1580 
1580 
1580 
1580 
1580 
1580 
1580 
1580 
1580 
1580 
1580 
1580 
1580 
1580 
1580 
1580 
1580 
1580 
1580 
1580 
1580 
1580 
1580 
1580 
1580 
1580 
1580 
1580 
1580 
1580 
1580 
1580 
1580 
1580 
1580 
1580 
1580 
1580 
1580 
1580 
1580 
1580 
1580 
1580 
1580 
1580 
1580 
1580 
1580 
1580 
1580 
1580 
1580 
1580 
1580 
1580 
1580 
1580 
1580 
1580 
1580 
1580 
1580 
1580 
1580 
1580 
1580 
1580 
1580 
1580 
1580 
1580 
1580 
1580 
1580 
1580 
1580 
1580 
1580 
1580 
1580 
1580 
1580 
1580 
1580 
1579 
1579 
1578 
1577 
1576 
1574 
1572 
1568 
1563 
1559 
1556 
1555 
1555 
1557 
1561 
1566 
1573 
1582 
1593 
1606 
1620 
1635 
1651 
1667 
1684 
1702 
1721 
1743 
1766 
1791 
1817 
1843 
1868 
1893 
1916 
1937 
1953 
1965 
1971 
1969 
1962 
1948 
1929 
1906 
1878 
1847 
1813 
1777 
1740 
1702 
1666 
1630 
1596 
1563 
1532 
1502 
1475 
1452 
1432 
1416 
1405 
1399 
1398 
1401 
1408 
1420 
1436 
1455 
1477 
1499 
1522 
1543 
1563 
1580 
1596 
1608 
1618 
1626 
1631 
1632 
1631 
1629 
1626 
1621 
1616 
1611 
1605 
1598 
1590 
1583 
1576 
1568 
1562 
1556 
1550 
1544 
1540 
1536 
1535 
1535 
1536 
1580 
1580 
1580 
1580 
1580 
1580 
1580 
1580 
1580 
1580 
1580 
1580 
1580 
1580 
1580 
1580 
1580 
1580 
1580 
1580 
1580 
1580 
1580 
1580 
1580 
1580 
1580 
1580 
1580 
1580 
1580 
1580 
1580 
1580 
1580 
1580 
1580 
1580 
1580 
1580 
1580 
1580 
1580 
1580 
1580 
1580 
1580 
1580 
1580 
1580 
1580 
1580 
1580 
1580 
1580 
1580 
1580 
1580 
1580 
1580 
1580 
1580 
1580 
1580 
1580 
1580 
1580 
1580 
1580 
1580 
1580 
1580 
1580 
1580 
1580 
1580 
1580 
1580 
1580 
1580 
1580 
1580 
1580 
1580 
1580 
1580 
1580 
1580 
1580 
1580 
1580 
1580 
1580 
1580 
1580 
1580 
1580 
1580 
1580 
1580 
1580 
1580 
1580 
1580 
1580 
1580 
1580 
1580 
1580 
1580 
1580 
1580 
1580 
1580 
1580 
1580 
1580 
1580 
1580 
1580 
1580 
1580 
1580 
1580 
1580 
1580 
1580 
1580 
1580 
1580 
1580 
1580 
1580 
1580 
1580 
1580 
1580 
1580 
1580 
1580 
1580 
1580 
1580 
1580 
1580 
1580 
1580 
1580 
1580 
1580 
1580 
1580 
1580 
1580 
1580 
1580 
1580 
1580 
1580 
1580 
1580 
1580 
1580 
1580 
1580 
1580 
1580 
1580 
1580 
1580 
1580 
1580 
1580 
1580 
1580 
1580 
1580 
1580 
1580 
1580 
1580 
1580 
1580 
1580 
1580 
1580 
1580 
1580 
1580 
1580 
1580 
1579 
1579 
1578 
1577 
1576 
1574 
1572 
1568 
1563 
1559 
1556 
1555 
1555 
1557 
1561 
1566 
1573 
1582 
1593 
1606 
1620 
1635 
1651 
1667 
1684 
1702 
1721 
1743 
1766 
1791 
1817 
1843 
1868 
1893 
1916 
1937 
1953 
1965 
1971 
1969 
1962 
1948 
1929 
1906 
1878 
1847 
1813 
1777 
1740 
1702 
1666 
1630 
1596 
1563 
1532 
1502 
1475 
1452 
1432 
1416 
1405 
1399 
1398 
1401 
1408 
1420 
1436 
1455 
1477 
1499 
1522 
1543 
1563 
1580 
1596 
1608 
1618 
1626 
1631 
1632 
1631 
1629 
1626 
1621 
1616 
1611 
1605 
1598 
1590 
1583 
1576 
1568 
1562 
1556 
1550 
1544 
1540 
1536 
1535 
1535 
1536 
1580 
1580 
1580 
1580 
1580 
1580 
1580 
1580 
1580 
1580 
1580 
1580 
1580 
1580 
1580 
1580 
1580 
1580 
1580 
1580 
1580 
1580 
1580 
1580 
1580 
1580 
1580 
1580 
1580 
1580 
1580 
1580 
1580 
1580 
1580 
1580 
1580 
1580 
1580 
1580 
1580 
1580 
1580 
1580 
1580 
1580 
1580 
1580 
1580 
1580 
1580 
1580 
1580 
1580 
1580 
1580 
1580 
1580 
1580 
1580 
1580 
1580 
1580 
1580 
1580 
1580 
1580 
1580 
1580 
1580 
1580 
1580 
1580 
1580 
1580 
1580 
1580 
1580 
1580 
1580 
1580 
1580 
1580 
1580 
1580 
1580 
1580 
1580 
1580 
1580 
1580 
1580 
1580 
1580 
1580 
1580 
1580 
1580 
1580 
1580 
1580 
1580 
1580 
1580 
1580 
1580 
1580 
1580 
1580 
1580 
1580 
1580 
1580 
1580 
1580 
1580 
1580 
1580 
1580 
1580 
1580 
1580 
1580 
1580 
1580 
1580 
1580 
1580 
1580 
1580 
1580 
1580 
1580 
1580 
1580 
1580 
1580 
1580 
1580 
1580 
1580 
1580 
1580 
1580 
1580 
1580 
1580 
1580 
1580 
1580 
1580 
1580 
1580 
1580 
1580 
1580 
1580 
1580 
1580 
1580 
1580 
1580 
1580 
1580 
1580 
1580 
1580 
1580 
1580 
1580 
1580 
1580 
1580 
1580 
1580 
1580 
1580 
1580 
1580 
1580 
1580 
1580 
1580 
1580 
1580 
1580 
1580 
1580 
1580 
1580 
1580 
1580 
1580 
1580 
1580 
1579 
1579 
1578 
1577 
1576 
1574 
1572 
1568 
1563 
1559 
1556 
1555 
1555 
1557 
1561 
1566 
1573 
1582 
1593 
1606 
1620 
1635 
1651 
1667 
1684 
1702 
1721 
1743 
1766 
1791 
1817 
1843 
1868 
1893 
1916 
1937 
1953 
1965 
1971 
1969 
1962 
1948 
1929 
1906 
1878 
1847 
1813 
1777 
1740 
1702 
1666 
1630 
1596 
1563 
1532 
1502 
1475 
1452 
1432 
1416 
1405 
1399 
1398 
1401 
1408 
1420 
1436 
1455 
1477 
1499 
1522 
1543 
1563 
1580 
1596 
1608 
1618 
1626 
1631 
1632 
1631 
1629 
1626 
1621 
1616 
1611 
1605 
1598 
1590 
1583 
1576 
1568 
1562 
1556 
1550 
1544 
1540 
1536 
1535 
1535 
1536 
1580 
1580 
1580 
1580 
1580 
1580 
1580 
1580 
1580 
1580 
1580 
1580 
1580 
1580 
1580 
1580 
1580 
1580 
1580 
1580 
1580 
1580 
1580 
1580 
1580 
1580 
1580 
1580 
1580 
1580 
1580 
1580 
1580 
1580 
1580 
1580 
1580 
1580 
1580 
1580 
1580 
1580 
1580 
1580 
1580 
1580 
1580 
1580 
1580 
1580 
1580 
1580 
1580 
1580 
1580 
1580 
1580 
1580 
1580 
1580 
1580 
1580 
1580 
1580 
1580 
1580 
1580 
1580 
1580 
1580 
1580 
1580 
1580 
1580 
1580 
1580 
1580 
1580 
1580 
1580 
1580 
1580 
1580 
1580 
1580 
1580 
1580 
1580 
1580 
1580 
1580 
1580 
1580 
1580 
1580 
1580 
1580 
1580 
1580 
1580 
1580 
1580 
1580 
1580 
1580 
1580 
1580 
1580 
1580 
1580 
1580 
1580 
1580 
1580 
1580 
1580 
1580 
1580 
1580 
1580 
1580 
1580 
1580 
1580 
1580 
1580 
1580 
1580 
1580 
1580 
1580 
1580 
1580 
1580 
1580 
1580 
1580 
1580 
1580 
1580 
1580 
1580 
1580 
1580 
1580 
1580 
1580 
1580 
1580 
1580 
1580 
1580 
1580 
1580 
1580 
1580 
1580 
1580 
1580 
1580 
1580 
1580 
1580 
1580 
1580 
1580 
1580 
1580 
1580 
1580 
1580 
1580 
1580 
1580 
1580 
1580 
1580 
1580 
1580 
1580 
1580 
1580 
1580 
1580 
1580 
1580 
1580 
1580 
1580 
1580 
1580 
1580 
1580 
1580 
1580 
1580 
1580 
1580 
1580 
1580 
1579 
1579 
1578 
1577 
1576 
1574 
1572 
1568 
1563 
1559 
1556 
1555 
1555 
1557 
1561 
1566 
1573 
1582 
1593 
1606 
1620 
1635 
1651 
1667 
1684 
1702 
1721 
1743 
1766 
1791 
1817 
1843 
1868 
1893 
1916 
1937 
1953 
1965 
1971 
1969 
1962 
1948 
1929 
1906 
1878 
1847 
1813 
1777 
1740 
1702 
1666 
1630 
1596 
1563 
1532 
1502 
1475 
1452 
1432 
1416 
1405 
1399 
1398 
1401 
1408 
1420 
1436 
1455 
1477 
1499 
1522 
1543 
1563 
1580 
1596 
1608 
1618 
1626 
1631 
1632 
1631 
1629 
1626 
1621 
1616 
1611 
1605 
1598 
1590 
1583 
1576 
1568 
1562 
1556 
1550 
1544 
1540 
1536 
1535 
1535 
1536 
1580 
1580 
1580 
1580 
1580 
1580 
1580 
1580 
1580 
1580 
1580 
1580 
1580 
1580 
1580 
1580 
1580 
1580 
1580 
1580 
1580 
1580 
1580 
1580 
1580 
1580 
1580 
1580 
1580 
1580 
1580 
1580 
1580 
1580 
1580 
1580 
1580 
1580 
1580 
1580 
1580 
1580 
1580 
1580 
1580 
1580 
1580 
1580 
1580 
1580 
1580 
1580 
1580 
1580 
1580 
1580 
1580 
1580 
1580 
1580 
1580 
1580 
1580 
1580 
1580 
1580 
1580 
1580 
1580 
1580 
1580 
1580 
1580 
1580 
1580 
1580 
1580 
1580 
1580 
1580 
1580 
1580 
1580 
1580 
1580 
1580 
1580 
1580 
1580 
1580 
1580 
1580 
1580 
1580 
1580 
1580 
1580 
1580 
1580 
1580 
1580 
1580 
1580 
1580 
1580 
1580 
1580 
1580 
1580 
1580 
1580 
1580 
1580 
1580 
1580 
1580 
1580 
1580 
1580 
1580 
1580 
1580 
1580 
1580 
1580 
1580 
1580 
1580 
1580 
1580 
1580 
1580 
1580 
1580 
1580 
1580 
1580 
1580 
1580 
1580 
1580 
1580 
1580 
1580 
1580 
1580 
1580 
1580 
1580 
1580 
1580 
1580 
1580 
1580 
1580 
1580 
1580 
1580 
1580 
1580 
1580 
1580 
1580 
1580 
1580 
1580 
1580 
1580 
1580 
1580 
1580 
1580 
1580 
1580 
1580 
1580 
1580 
1580 
1580 
1580 
1580 
1580 
1580 
1580 
1580 
1580 
1580 
1580 
1580 
1580 
1579 
1579 
1578 
1577 
1576 
1574 
1572 
1568 
1563 
1559 
1556 
1555 
1555 
1557 
1561 
1566 
1573 
1582 
1593 
1606 
1620 
1635 
1651 
1667 
1684 
1702 
1721 
1743 
1766 
1791 
1817 
1843 
1868 
1893 
1916 
1937 
1953 
1965 
1971 
1969 
1962 
1948 
1929 
1906 
1878 
1847 
1813 
1777 
1740 
1702 
1666 
1630 
1596 
1563 
1532 
1502 
1475 
1452 
1432 
1416 
1405 
1399 
1398 
1401 
1408 
1420 
1436 
1455 
1477 
1499 
1522 
1543 
1563 
1580 
1596 
1608 
1618 
1626 
1631 
1632 
1631 
1629 
1626 
1621 
1616 
1611 
1605 
1598 
1590 
1583 
1576 
1568 
1562 
1556 
1550 
1544 
1540 
1536 
1535 
1535 
1536 
1580 
1580 
1580 
1580 
1580 
1580 
1580 
1580 
1580 
1580 
1580 
1580 
1580 
1580 
1580 
1580 
1580 
1580 
1580 
1580 
1580 
1580 
1580 
1580 
1580 
1580 
1580 
1580 
1580 
1580 
1580 
1580 
1580 
1580 
1580 
1580 
1580 
1580 
1580 
1580 
1580 
1580 
1580 
1580 
1580 
1580 
1580 
1580 
1580 
1580 
1580 
1580 
1580 
1580 
1580 
1580 
1580 
1580 
1580 
1580 
1580 
1580 
1580 
1580 
1580 
1580 
1580 
1580 
1580 
1580 
1580 
1580 
1580 
1580 
1580 
1580 
1580 
1580 
1580 
1580 
1580 
1580 
1580 
1580 
1580 
1580 
1580 
1580 
1580 
1580 
1580 
1580 
1580 
1580 
1580 
1580 
1580 
1580 
1580 
1580 
1580 
1580 
1580 
1580 
1580 
1580 
1580 
1580 
1580 
1580 
1580 
1580 
1580 
1580 
1580 
1580 
1580 
1580 
1580 
1580 
1580 
1580 
1580 
1580 
1580 
1580 
1580 
1580 
1580 
1580 
1580 
1580 
1580 
1580 
1580 
1580 
1580 
1580 
1580 
1580 
1580 
1580 
1580 
1580 
1580 
1580 
1580 
1580 
1580 
1580 
1580 
1580 
1580 
1580 
1580 
1580 
1580 
1580 
1580 
1580 
1580 
1580 
1580 
1580 
1580 
1580 
1580 
1580 
1580 
1580 
1580 
1580 
1580 
1580 
1580 
1580 
1580 
1580 
1580 
1580 
1580 
1580 
1580 
1580 
1580 
1580 
1580 
1580 
1580 
1580 
1579 
1579 
1578 
1577 
1576 
1574 
1572 
1568 
1563 
1559 
1556 
1555 
1555 
1557 
1561 
1566 
1573 
1582 
1593 
1606 
1620 
1635 
1651 
1667 
1684 
1702 
1721 
1743 
1766 
1791 
1817 
1843 
1868 
1893 
1916 
1937 
1953 
1965 
1971 
1969 
1962 
1948 
1929 
1906 
1878 
1847 
1813 
1777 
1740 
1702 
1666 
1630 
1596 
1563 
1532 
1502 
1475 
1452 
1432 
1416 
1405 
1399 
1398 
1401 
1408 
1420 
1436 
1455 
1477 
1499 
1522 
1543 
1563 
1580 
1596 
1608 
1618 
1626 
1631 
1632 
1631 
1629 
1626 
1621 
1616 
1611 
1605 
1598 
1590 
1583 
1576 
1568 
1562 
1556 
1550 
1544 
1540 
1536 
1535 
1535 
1536 
1580 
1580 
1580 
1580 
1580 
1580 
1580 
1580 
1580 
1580 
1580 
1580 
1580 
1580 
1580 
1580 
1580 
1580 
1580 
1580 
1580 
1580 
1580 
1580 
1580 
1580 
1580 
1580 
1580 
1580 
1580 
1580 
1580 
1580 
1580 
1580 
1580 
1580 
1580 
1580 
1580 
1580 
1580 
1580 
1580 
1580 
1580 
1580 
1580 
1580 
1580 
1580 
1580 
1580 
1580 
1580 
1580 
1580 
1580 
1580 
1580 
1580 
1580 
1580 
1580 
1580 
1580 
1580 
1580 
1580 
1580 
1580 
1580 
1580 
1580 
1580 
1580 
1580 
1580 
1580 
1580 
1580 
1580 
1580 
1580 
1580 
1580 
1580 
1580 
1580 
1580 
1580 
1580 
1580 
1580 
1580 
1580 
1580 
1580 
1580 
1580 
1580 
1580 
1580 
1580 
1580 
1580 
1580 
1580 
1580 
1580 
1580 
1580 
1580 
1580 
1580 
1580 
1580 
1580 
1580 
1580 
1580 
1580 
1580 
1580 
1580 
1580 
1580 
1580 
1580 
1580 
1580 
1580 
1580 
1580 
1580 
1580 
1580 
1580 
1580 
1580 
1580 
1580 
1580 
1580 
1580 
1580 
1580 
1580 
1580 
1580 
1580 
1580 
1580 
1580 
1580 
1580 
1580 
1580 
1580 
1580 
1580 
1580 
1580 
1580 
1580 
1580 
1580 
1580 
1580 
1580 
1580 
1580 
1580 
1580 
1580 
1580 
1580 
1580 
1580 
1580 
1580 
1580 
1580 
1580 
1580 
1580 
1580 
1580 
1580 
1580 
1579 
1579 
1578 
1577 
1576 
1574 
1572 
1568 
1563 
1559 
1556 
1555 
1555 
1557 
1561 
1566 
1573 
1582 
1593 
1606 
1620 
1635 
1651 
1667 
1684 
1702 
1721 
1743 
1766 
1791 
1817 
1843 
1868 
1893 
1916 
1937 
1953 
1965 
1971 
1969 
1962 
1948 
1929 
1906 
1878 
1847 
1813 
1777 
1740 
1702 
1666 
1630 
1596 
1563 
1532 
1502 
1475 
1452 
1432 
1416 
1405 
1399 
1398 
1401 
1408 
1420 
1436 
1455 
1477 
1499 
1522 
1543 
1563 
1580 
1596 
1608 
1618 
1626 
1631 
1632 
1631 
1629 
1626 
1621 
1616 
1611 
1605 
1598 
1590 
1583 
1576 
1568 
1562 
1556 
1550 
1544 
1540 
1536 
1535 
1535 
1536 
1580 
1580 
1580 
1580 
1580 
1580 
1580 
1580 
1580 
1580 
1580 
1580 
1580 
1580 
1580 
1580 
1580 
1580 
1580 
1580 
1580 
1580 
1580 
1580 
1580 
1580 
1580 
1580 
1580 
1580 
1580 
1580 
1580 
1580 
1580 
1580 
1580 
1580 
1580 
1580 
1580 
1580 
1580 
1580 
1580 
1580 
1580 
1580 
1580 
1580 
1580 
1580 
1580 
1580 
1580 
1580 
1580 
1580 
1580 
1580 
1580 
1580 
1580 
1580 
1580 
1580 
1580 
1580 
1580 
1580 
1580 
1580 
1580 
1580 
1580 
1580 
1580 
1580 
1580 
1580 
1580 
1580 
1580 
1580 
1580 
1580 
1580 
1580 
1580 
1580 
1580 
1580 
1580 
1580 
1580 
1580 
1580 
1580 
1580 
1580 
1580 
1580 
1580 
1580 
1580 
1580 
1580 
1580 
1580 
1580 
1580 
1580 
1580 
1580 
1580 
1580 
1580 
1580 
1580 
1580 
1580 
1580 
1580 
1580 
1580 
1580 
1580 
1580 
1580 
1580 
1580 
1580 
1580 
1580 
1580 
1580 
1580 
1580 
1580 
1580 
1580 
1580 
1580 
1580 
1580 
1580 
1580 
1580 
1580 
1580 
1580 
1580 
1580 
1580 
1580 
1580 
1580 
1580 
1580 
1580 
1580 
1580 
1580 
1580 
1580 
1580 
1580 
1580 
1580 
1580 
1580 
1580 
1580 
1580 
1580 
1580 
1580 
1580 
1580 
1580 
1580 
1580 
1580 
1580 
1580 
1580 
1580 
1580 
1580 
1580 
1580 
1580 
1580 
1579 
1579 
1578 
1577 
1576 
1574 
1572 
1568 
1563 
1559 
1556 
1555 
1555 
1557 
1561 
1566 
1573 
1582 
1593 
1606 
1620 
1635 
1651 
1667 
1684 
1702 
1721 
1743 
1766 
1791 
1817 
1843 
1868 
1893 
1916 
1937 
1953 
1965 
1971 
1969 
1962 
1948 
1929 
1906 
1878 
1847 
1813 
1777 
1740 
1702 
1666 
1630 
1596 
1563 
1532 
1502 
1475 
1452 
1432 
1416 
1405 
1399 
1398 
1401 
1408 
1420 
1436 
1455 
1477 
1499 
1522 
1543 
1563 
1580 
1596 
1608 
1618 
1626 
1631 
1632 
1631 
1629 
1626 
1621 
1616 
1611 
1605 
1598 
1590 
1583 
1576 
1568 
1562 
1556 
1550 
1544 
1540 
1536 
1535 
1535 
1536 
1580 
1580 
1580 
1580 
1580 
1580 
1580 
1580 
1580 
1580 
1580 
1580 
1580 
1580 
1580 
1580 
1580 
1580 
1580 
1580 
1580 
1580 
1580 
1580 
1580 
1580 
1580 
1580 
1580 
1580 
1580 
1580 
1580 
1580 
1580 
1580 
1580 
1580 
1580 
1580 
1580 
1580 
1580 
1580 
1580 
1580 
1580 
1580 
1580 
1580 
1580 
1580 
1580 
1580 
1580 
1580 
1580 
1580 
1580 
1580 
1580 
1580 
1580 
1580 
1580 
1580 
1580 
1580 
1580 
1580 
1580 
1580 
1580 
1580 
1580 
1580 
1580 
1580 
1580 
1580 
1580 
1580 
1580 
1580 
1580 
1580 
1580 
1580 
1580 
1580 
1580 
1580 
1580 
1580 
1580 
1580 
1580 
1580 
1580 
1580 
1580 
1580 
1580 
1580 
1580 
1580 
1580 
1580 
1580 
1580 
1580 
1580 
1580 
1580 
1580 
1580 
1580 
1580 
1580 
1580 
1580 
1580 
1580 
1580 
1580 
1580 
1580 
1580 
1580 
1580 
1580 
1580 
1580 
1580 
1580 
1580 
1580 
1580 
1580 
1580 
1580 
1580 
1580 
1580 
1580 
1580 
1580 
1580 
1580 
1580 
1580 
1580 
1580 
1580 
1580 
1580 
1580 
1580 
1580 
1580 
1580 
1580 
1580 
1580 
1580 
1580 
1580 
1580 
1580 
1580 
1580 
1580 
1580 
1580 
1580 
1580 
1580 
1580 
1580 
1580 
1580 
1580 
1580 
1580 
1580 
1580 
1580 
1580 
1580 
1580 
1580 
1579 
1579 
1578 
1577 
1576 
1574 
1572 
1568 
1563 
1559 
1556 
1555 
1555 
1557 
1561 
1566 
1573 
1582 
1593 
1606 
1620 
1635 
1651 
1667 
1684 
1702 
1721 
1743 
1766 
1791 
1817 
1843 
1868 
1893 
1916 
1937 
1953 
1965 
1971 
1969 
1962 
1948 
1929 
1906 
1878 
1847 
1813 
1777 
1740 
1702 
1666 
1630 
1596 
1563 
1532 
1502 
1475 
1452 
1432 
1416 
1405 
1399 
1398 
1401 
1408 
1420 
1436 
1455 
1477 
1499 
1522 
1543 
1563 
1580 
1596 
1608 
1618 
1626 
1631 
1632 
1631 
1629 
1626 
1621 
1616 
1611 
1605 
1598 
1590 
1583 
1576 
1568 
1562 
1556 
1550 
1544 
1540 
1536 
1535 
1535 
1536 
1580 
1580 
1580 
1580 
1580 
1580 
1580 
1580 
1580 
1580 
1580 
1580 
1580 
1580 
1580 
1580 
1580 
1580 
1580 
1580 
1580 
1580 
1580 
1580 
1580 
1580 
1580 
1580 
1580 
1580 
1580 
1580 
1580 
1580 
1580 
1580 
1580 
1580 
1580 
1580 
1580 
1580 
1580 
1580 
1580 
1580 
1580 
1580 
1580 
1580 
1580 
1580 
1580 
1580 
1580 
1580 
1580 
1580 
1580 
1580 
1580 
1580 
1580 
1580 
1580 
1580 
1580 
1580 
1580 
1580 
1580 
1580 
1580 
1580 
1580 
1580 
1580 
1580 
1580 
1580 
1580 
1580 
1580 
1580 
1580 
1580 
1580 
1580 
1580 
1580 
1580 
1580 
1580 
1580 
1580 
1580 
1580 
1580 
1580 
1580 
1580 
1580 
1580 
1580 
1580 
1580 
1580 
1580 
1580 
1580 
1580 
1580 
1580 
1580 
1580 
1580 
1580 
1580 
1580 
1580 
1580 
1580 
1580 
1580 
1580 
1580 
1580 
1580 
1580 
1580 
1580 
1580 
1580 
1580 
1580 
1580 
1580 
1580 
1580 
1580 
1580 
1580 
1580 
1580 
1580 
1580 
1580 
1580 
1580 
1580 
1580 
1580 
1580 
1580 
1580 
1580 
1580 
1580 
1580 
1580 
1580 
1580 
1580 
1580 
1580 
1580 
1580 
1580 
1580 
1580 
1580 
1580 
1580 
1580 
1580 
1580 
1580 
1580 
1580 
1580 
1580 
1580 
1580 
1580 
1580 
1580 
1580 
1580 
1580 
1580 
1580 
1580 
1580 
1580 
1580 
1579 
1579 
1578 
1577 
1576 
1574 
1572 
1568 
1563 
1559 
1556 
1555 
1555 
1557 
1561 
1566 
1573 
1582 
1593 
1606 
1620 
1635 
1651 
1667 
1684 
1702 
1721 
1743 
1766 
1791 
1817 
1843 
1868 
1893 
1916 
1937 
1953 
1965 
1971 
1969 
1962 
1948 
1929 
1906 
1878 
1847 
1813 
1777 
1740 
1702 
1666 
1630 
1596 
1563 
1532 
1502 
1475 
1452 
1432 
1416 
1405 
1399 
1398 
1401 
1408 
1420 
1436 
1455 
1477 
1499 
1522 
1543 
1563 
1580 
1596 
1608 
1618 
1626 
1631 
1632 
1631 
1629 
1626 
1621 
1616 
1611 
1605 
1598 
1590 
1583 
1576 
1568 
1562 
1556 
1550 
1544 
1540 
1536 
1535 
1535 
1536 
1580 
1580 
1580 
1580 
1580 
1580 
1580 
1580 
1580 
1580 
1580 
1580 
1580 
1580 
1580 
1580 
1580 
1580 
1580 
1580 
1580 
1580 
1580 
1580 
1580 
1580 
1580 
1580 
1580 
1580 
1580 
1580 
1580 
1580 
1580 
1580 
1580 
1580 
1580 
1580 
1580 
1580 
1580 
1580 
1580 
1580 
1580 
1580 
1580 
1580 
1580 
1580 
1580 
1580 
1580 
1580 
1580 
1580 
1580 
1580 
1580 
1580 
1580 
1580 
1580 
1580 
1580 
1580 
1580 
1580 
1580 
1580 
1580 
1580 
1580 
1580 
1580 
1580 
1580 
1580 
1580 
1580 
1580 
1580 
1580 
1580 
1580 
1580 
1580 
1580 
1580 
1580 
1580 
1580 
1580 
1580 
1580 
1580 
1580 
1580 
1580 
1580 
1580 
1580 
1580 
1580 
1580 
1580 
1580 
1580 
1580 
1580 
1580 
1580 
1580 
1580 
1580 
1580 
1580 
1580 
1580 
1580 
1580 
1580 
1580 
1580 
1580 
1580 
1580 
1580 
1580 
1580 
1580 
1580 
1580 
1580 
1580 
1580 
1580 
1580 
1580 
1580 
1580 
1580 
1580 
1580 
1580 
1580 
1580 
1580 
1580 
1580 
1580 
1580 
1580 
1580 
1580 
1580 
1580 
1580 
1580 
1580 
1580 
1580 
1580 
1580 
1580 
1580 
1580 
1580 
1580 
1580 
1580 
1580 
1580 
1580 
1580 
1580 
1580 
1580 
1580 
1580 
1580 
1580 
1580 
1580 
1580 
1580 
1580 
1580 
1580 
1580 
1580 
1580 
1580 
1580 
1580 
1580 
1580 
1580 
1579 
1579 
1578 
1577 
1576 
1574 
1572 
1568 
1563 
1559 
1556 
1555 
1555 
1557 
1561 
1566 
1573 
1582 
1593 
1606 
1620 
1635 
1651 
1667 
1684 
1702 
1721 
1743 
1766 
1791 
1817 
1843 
1868 
1893 
1916 
1937 
1953 
1965 
1971 
1969 
1962 
1948 
1929 
1906 
1878 
1847 
1813 
1777 
1740 
1702 
1666 
1630 
1596 
1563 
1532 
1502 
1475 
1452 
1432 
1416 
1405 
1399 
1398 
1401 
1408 
1420 
1436 
1455 
1477 
1499 
1522 
1543 
1563 
1580 
1596 
1608 
1618 
1626 
1631 
1632 
1631 
1629 
1626 
1621 
1616 
1611 
1605 
1598 
1590 
1583 
1576 
1568 
1562 
1556 
1550 
1544 
1540 
1536 
1535 
1535 
1536 
1580 
1580 
1580 
1580 
1580 
1580 
1580 
1580 
1580 
1580 
1580 
1580 
1580 
1580 
1580 
1580 
1580 
1580 
1580 
1580 
1580 
1580 
1580 
1580 
1580 
1580 
1580 
1580 
1580 
1580 
1580 
1580 
1580 
1580 
1580 
1580 
1580 
1580 
1580 
1580 
1580 
1580 
1580 
1580 
1580 
1580 
1580 
1580 
1580 
1580 
1580 
1580 
1580 
1580 
1580 
1580 
1580 
1580 
1580 
1580 
1580 
1580 
1580 
1580 
1580 
1580 
1580 
1580 
1580 
1580 
1580 
1580 
1580 
1580 
1580 
1580 
1580 
1580 
1580 
1580 
1580 
1580 
1580 
1580 
1580 
1580 
1580 
1580 
1580 
1580 
1580 
1580 
1580 
1580 
1580 
1580 
1580 
1580 
1580 
1580 
1580 
1580 
1580 
1580 
1580 
1580 
1580 
1580 
1580 
1580 
1580 
1580 
1580 
1580 
1580 
1580 
1580 
1580 
1580 
1580 
1580 
1580 
1580 
1580 
1580 
1580 
1580 
1580 
1580 
1580 
1580 
1580 
1580 
1580 
1580 
1580 
1580 
1580 
1580 
1580 
1580 
1580 
1580 
1580 
1580 
1580 
1580 
1580 
1580 
1580 
1580 
1580 
1580 
1580 
1580 
1580 
1580 
1580 
1580 
1580 
1580 
1580 
1580 
1580 
1580 
1580 
1580 
1580 
1580 
1580 
1580 
1580 
1580 
1580 
1580 
1580 
1580 
1580 
1580 
1580 
1580 
1580 
1580 
1580 
1580 
1580 
1580 
1580 
1580 
1580 
1579 
1579 
1578 
1577 
1576 
1574 
1572 
1568 
1563 
1559 
1556 
1555 
1555 
1557 
1561 
1566 
1573 
1582 
1593 
1606 
1620 
1635 
1651 
1667 
1684 
1702 
1721 
1743 
1766 
1791 
1817 
1843 
1868 
1893 
1916 
1937 
1953 
1965 
1971 
1969 
1962 
1948 
1929 
1906 
1878 
1847 
1813 
1777 
1740 
1702 
1666 
1630 
1596 
1563 
1532 
1502 
1475 
1452 
1432 
1416 
1405 
1399 
1398 
1401 
1408 
1420 
1436 
1455 
1477 
1499 
1522 
1543 
1563 
1580 
1596 
1608 
1618 
1626 
1631 
1632 
1631 
1629 
1626 
1621 
1616 
1611 
1605 
1598 
1590 
1583 
1576 
1568 
1562 
1556 
1550 
1544 
1540 
1536 
1535 
1535 
1536 
1580 
1580 
1580 
1580 
1580 
1580 
1580 
1580 
1580 
1580 
1580 
1580 
1580 
1580 
1580 
1580 
1580 
1580 
1580 
1580 
1580 
1580 
1580 
1580 
1580 
1580 
1580 
1580 
1580 
1580 
1580 
1580 
1580 
1580 
1580 
1580 
1580 
1580 
1580 
1580 
1580 
1580 
1580 
1580 
1580 
1580 
1580 
1580 
1580 
1580 
1580 
1580 
1580 
1580 
1580 
1580 
1580 
1580 
1580 
1580 
1580 
1580 
1580 
1580 
1580 
1580 
1580 
1580 
1580 
1580 
1580 
1580 
1580 
1580 
1580 
1580 
1580 
1580 
1580 
1580 
1580 
1580 
1580 
1580 
1580 
1580 
1580 
1580 
1580 
1580 
1580 
1580 
1580 
1580 
1580 
1580 
1580 
1580 
1580 
1580 
1580 
1580 
1580 
1580 
1580 
1580 
1580 
1580 
1580 
1580 
1580 
1580 
1580 
1580 
1580 
1580 
1580 
1580 
1580 
1580 
1580 
1580 
1580 
1580 
1580 
1580 
1580 
1580 
1580 
1580 
1580 
1580 
1580 
1580 
1580 
1580 
1580 
1580 
1580 
1580 
1580 
1580 
1580 
1580 
1580 
1580 
1580 
1580 
1580 
1580 
1580 
1580 
1580 
1580 
1580 
1580 
1580 
1580 
1580 
1580 
1580 
1580 
1580 
1580 
1580 
1580 
1580 
1580 
1580 
1580 
1580 
1580 
1580 
1580 
1580 
1580 
1580 
1580 
1580 
1580 
1580 
1580 
1580 
1580 
1580 
1580 
1580 
1580 
1580 
1580 
1579 
1579 
1578 
1577 
1576 
1574 
1572 
1568 
1563 
1559 
1556 
1555 
1555 
1557 
1561 
1566 
1573 
1582 
1593 
1606 
1620 
1635 
1651 
1667 
1684 
1702 
1721 
1743 
1766 
1791 
1817 
1843 
1868 
1893 
1916 
1937 
1953 
1965 
1971 
1969 
1962 
1948 
1929 
1906 
1878 
1847 
1813 
1777 
1740 
1702 
1666 
1630 
1596 
1563 
1532 
1502 
1475 
1452 
1432 
1416 
1405 
1399 
1398 
1401 
1408 
1420 
1436 
1455 
1477 
1499 
1522 
1543 
1563 
1580 
1596 
1608 
1618 
1626 
1631 
1632 
1631 
1629 
1626 
1621 
1616 
1611 
1605 
1598 
1590 
1583 
1576 
1568 
1562 
1556 
1550 
1544 
1540 
1536 
1535 
1535 
1536 
1580 
1580 
1580 
1580 
1580 
1580 
1580 
1580 
1580 
1580 
1580 
1580 
1580 
1580 
1580 
1580 
1580 
1580 
1580 
1580 
1580 
1580 
1580 
1580 
1580 
1580 
1580 
1580 
1580 
1580 
1580 
1580 
1580 
1580 
1580 
1580 
1580 
1580 
1580 
1580 
1580 
1580 
1580 
1580 
1580 
1580 
1580 
1580 
1580 
1580 
1580 
1580 
1580 
1580 
1580 
1580 
1580 
1580 
1580 
1580 
1580 
1580 
1580 
1580 
1580 
1580 
1580 
1580 
1580 
1580 
1580 
1580 
1580 
1580 
1580 
1580 
1580 
1580 
1580 
1580 
1580 
1580 
1580 
1580 
1580 
1580 
1580 
1580 
1580 
1580 
1580 
1580 
1580 
1580 
1580 
1580 
1580 
1580 
1580 
1580 
1580 
1580 
1580 
1580 
1580 
1580 
1580 
1580 
1580 
1580 
1580 
1580 
1580 
1580 
1580 
1580 
1580 
1580 
1580 
1580 
1580 
1580 
1580 
1580 
1580 
1580 
1580 
1580 
1580 
1580 
1580 
1580 
1580 
1580 
1580 
1580 
1580 
1580 
1580 
1580 
1580 
1580 
1580 
1580 
1580 
1580 
1580 
1580 
1580 
1580 
1580 
1580 
1580 
1580 
1580 
1580 
1580 
1580 
1580 
1580 
1580 
1580 
1580 
1580 
1580 
1580 
1580 
1580 
1580 
1580 
1580 
1580 
1580 
1580 
1580 
1580 
1580 
1580 
1580 
1580 
1580 
1580 
1580 
1580 
1580 
1580 
1580 
1580 
1580 
1580 
1580 
1579 
1579 
1578 
1577 
1576 
1574 
1572 
1568 
1563 
1559 
1556 
1555 
1555 
1557 
1561 
1566 
1573 
1582 
1593 
1606 
1620 
1635 
1651 
1667 
1684 
1702 
1721 
1743 
1766 
1791 
1817 
1843 
1868 
1893 
1916 
1937 
1953 
1965 
1971 
1969 
1962 
1948 
1929 
1906 
1878 
1847 
1813 
1777 
1740 
1702 
1666 
1630 
1596 
1563 
1532 
1502 
1475 
1452 
1432 
1416 
1405 
1399 
1398 
1401 
1408 
1420 
1436 
1455 
1477 
1499 
1522 
1543 
1563 
1580 
1596 
1608 
1618 
1626 
1631 
1632 
1631 
1629 
1626 
1621 
1616 
1611 
1605 
1598 
1590 
1583 
1576 
1568 
1562 
1556 
1550 
1544 
1540 
1536 
1535 
1535 
1536 
1580 
1580 
1580 
1580 
1580 
1580 
1580 
1580 
1580 
1580 
1580 
1580 
1580 
1580 
1580 
1580 
1580 
1580 
1580 
1580 
1580 
1580 
1580 
1580 
1580 
1580 
1580 
1580 
1580 
1580 
1580 
1580 
1580 
1580 
1580 
1580 
1580 
1580 
1580 
1580 
1580 
1580 
1580 
1580 
1580 
1580 
1580 
1580 
1580 
1580 
1580 
1580 
1580 
1580 
1580 
1580 
1580 
1580 
1580 
1580 
1580 
1580 
1580 
1580 
1580 
1580 
1580 
1580 
1580 
1580 
1580 
1580 
1580 
1580 
1580 
1580 
1580 
1580 
1580 
1580 
1580 
1580 
1580 
1580 
1580 
1580 
1580 
1580 
1580 
1580 
1580 
1580 
1580 
1580 
1580 
1580 
1580 
1580 
1580 
1580 
1580 
1580 
1580 
1580 
1580 
1580 
1580 
1580 
1580 
1580 
1580 
1580 
1580 
1580 
1580 
1580 
1580 
1580 
1580 
1580 
1580 
1580 
1580 
1580 
1580 
1580 
1580 
1580 
1580 
1580 
1580 
1580 
1580 
1580 
1580 
1580 
1580 
1580 
1580 
1580 
1580 
1580 
1580 
1580 
1580 
1580 
1580 
1580 
1580 
1580 
1580 
1580 
1580 
1580 
1580 
1580 
1580 
1580 
1580 
1580 
1580 
1580 
1580 
1580 
1580 
1580 
1580 
1580 
1580 
1580 
1580 
1580 
1580 
1580 
1580 
1580 
1580 
1580 
1580 
1580 
1580 
1580 
1580 
1580 
1580 
1580 
1580 
1580 
1580 
1580 
1580 
1580 
1580 
1579 
1579 
1578 
1577 
1576 
1574 
1572 
1568 
1563 
1559 
1556 
1555 
1555 
1557 
1561 
1566 
1573 
1582 
1593 
1606 
1620 
1635 
1651 
1667 
1684 
1702 
1721 
1743 
1766 
1791 
1817 
1843 
1868 
1893 
1916 
1937 
1953 
1965 
1971 
1969 
1962 
1948 
1929 
1906 
1878 
1847 
1813 
1777 
1740 
1702 
1666 
1630 
1596 
1563 
1532 
1502 
1475 
1452 
1432 
1416 
1405 
1399 
1398 
1401 
1408 
1420 
1436 
1455 
1477 
1499 
1522 
1543 
1563 
1580 
1596 
1608 
1618 
1626 
1631 
1632 
1631 
1629 
1626 
1621 
1616 
1611 
1605 
1598 
1590 
1583 
1576 
1568 
1562 
1556 
1550 
1544 
1540 
1536 
1535 
1535 
1536 
1580 
1580 
1580 
1580 
1580 
1580 
1580 
1580 
1580 
1580 
1580 
1580 
1580 
1580 
1580 
1580 
1580 
1580 
1580 
1580 
1580 
1580 
1580 
1580 
1580 
1580 
1580 
1580 
1580 
1580 
1580 
1580 
1580 
1580 
1580 
1580 
1580 
1580 
1580 
1580 
1580 
1580 
1580 
1580 
1580 
1580 
1580 
1580 
1580 
1580 
1580 
1580 
1580 
1580 
1580 
1580 
1580 
1580 
1580 
1580 
1580 
1580 
1580 
1580 
1580 
1580 
1580 
1580 
1580 
1580 
1580 
1580 
1580 
1580 
1580 
1580 
1580 
1580 
1580 
1580 
1580 
1580 
1580 
1580 
1580 
1580 
1580 
1580 
1580 
1580 
1580 
1580 
1580 
1580 
1580 
1580 
1580 
1580 
1580 
1580 
1580 
1580 
1580 
1580 
1580 
1580 
1580 
1580 
1580 
1580 
1580 
1580 
1580 
1580 
1580 
1580 
1580 
1580 
1580 
1580 
1580 
1580 
1580 
1580 
1580 
1580 
1580 
1580 
1580 
1580 
1580 
1580 
1580 
1580 
1580 
1580 
1580 
1580 
1580 
1580 
1580 
1580 
1580 
1580 
1580 
1580 
1580 
1580 
1580 
1580 
1580 
1580 
1580 
1580 
1580 
1580 
1580 
1580 
1580 
1580 
1580 
1580 
1580 
1580 
1580 
1580 
1580 
1580 
1580 
1580 
1580 
1580 
1580 
1580 
1580 
1580 
1580 
1580 
1580 
1580 
1580 
1580 
1580 
1580 
1580 
1580 
1580 
1580 
1580 
1580 
1580 
1579 
1579 
1578 
1577 
1576 
1574 
1572 
1568 
1563 
1559 
1556 
1555 
1555 
1557 
1561 
1566 
1573 
1582 
1593 
1606 
1620 
1635 
1651 
1667 
1684 
1702 
1721 
1743 
1766 
1791 
1817 
1843 
1868 
1893 
1916 
1937 
1953 
1965 
1971 
1969 
1962 
1948 
1929 
1906 
1878 
1847 
1813 
1777 
1740 
1702 
1666 
1630 
1596 
1563 
1532 
1502 
1475 
1452 
1432 
1416 
1405 
1399 
1398 
1401 
1408 
1420 
1436 
1455 
1477 
1499 
1522 
1543 
1563 
1580 
1596 
1608 
1618 
1626 
1631 
1632 
1631 
1629 
1626 
1621 
1616 
1611 
1605 
1598 
1590 
1583 
1576 
1568 
1562 
1556 
1550 
1544 
1540 
1536 
1535 
1535 
1536 
1580 
1580 
1580 
1580 
1580 
1580 
1580 
1580 
1580 
1580 
1580 
1580 
1580 
1580 
1580 
1580 
1580 
1580 
1580 
1580 
1580 
1580 
1580 
1580 
1580 
1580 
1580 
1580 
1580 
1580 
1580 
1580 
1580 
1580 
1580 
1580 
1580 
1580 
1580 
1580 
1580 
1580 
1580 
1580 
1580 
1580 
1580 
1580 
1580 
1580 
1580 
1580 
1580 
1580 
1580 
1580 
1580 
1580 
1580 
1580 
1580 
1580 
1580 
1580 
1580 
1580 
1580 
1580 
1580 
1580 
1580 
1580 
1580 
1580 
1580 
1580 
1580 
1580 
1580 
1580 
1580 
1580 
1580 
1580 
1580 
1580 
1580 
1580 
1580 
1580 
1580 
1580 
1580 
1580 
1580 
1580 
1580 
1580 
1580 
1580 
1580 
1580 
1580 
1580 
1580 
1580 
1580 
1580 
1580 
1580 
1580 
1580 
1580 
1580 
1580 
1580 
1580 
1580 
1580 
1580 
1580 
1580 
1580 
1580 
1580 
1580 
1580 
1580 
1580 
1580 
1580 
1580 
1580 
1580 
1580 
1580 
1580 
1580 
1580 
1580 
1580 
1580 
1580 
1580 
1580 
1580 
1580 
1580 
1580 
1580 
1580 
1580 
1580 
1580 
1580 
1580 
1580 
1580 
1580 
1580 
1580 
1580 
1580 
1580 
1580 
1580 
1580 
1580 
1580 
1580 
1580 
1580 
1580 
1580 
1580 
1580 
1580 
1580 
1580 
1580 
1580 
1580 
1580 
1580 
1580 
1580 
1580 
1580 
1580 
1580 
1580 
1580 
1580 
1580 
1580 
1579 
1579 
1578 
1577 
1576 
1574 
1572 
1568 
1563 
1559 
1556 
1555 
1555 
1557 
1561 
1566 
1573 
1582 
1593 
1606 
1620 
1635 
1651 
1667 
1684 
1702 
1721 
1743 
1766 
1791 
1817 
1843 
1868 
1893 
1916 
1937 
1953 
1965 
1971 
1969 
1962 
1948 
1929 
1906 
1878 
1847 
1813 
1777 
1740 
1702 
1666 
1630 
1596 
1563 
1532 
1502 
1475 
1452 
1432 
1416 
1405 
1399 
1398 
1401 
1408 
1420 
1436 
1455 
1477 
1499 
1522 
1543 
1563 
1580 
1596 
1608 
1618 
1626 
1631 
1632 
1631 
1629 
1626 
1621 
1616 
1611 
1605 
1598 
1590 
1583 
1576 
1568 
1562 
1556 
1550 
1544 
1540 
1536 
1535 
1535 
1536 
1580 
1580 
1580 
1580 
1580 
1580 
1580 
1580 
1580 
1580 
1580 
1580 
1580 
1580 
1580 
1580 
1580 
1580 
1580 
1580 
1580 
1580 
1580 
1580 
1580 
1580 
1580 
1580 
1580 
1580 
1580 
1580 
1580 
1580 
1580 
1580 
1580 
1580 
1580 
1580 
1580 
1580 
1580 
1580 
1580 
1580 
1580 
1580 
1580 
1580 
1580 
1580 
1580 
1580 
1580 
1580 
1580 
1580 
1580 
1580 
1580 
1580 
1580 
1580 
1580 
1580 
1580 
1580 
1580 
1580 
1580 
1580 
1580 
1580 
1580 
1580 
1580 
1580 
1580 
1580 
1580 
1580 
1580 
1580 
1580 
1580 
1580 
1580 
1580 
1580 
1580 
1580 
1580 
1580 
1580 
1580 
1580 
1580 
1580 
1580 
1580 
1580 
1580 
1580 
1580 
1580 
1580 
1580 
1580 
1580 
1580 
1580 
1580 
1580 
1580 
1580 
1580 
1580 
1580 
1580 
1580 
1580 
1580 
1580 
1580 
1580 
1580 
1580 
1580 
1580 
1580 
1580 
1580 
1580 
1580 
1580 
1580 
1580 
1580 
1580 
1580 
1580 
1580 
1580 
1580 
1580 
1580 
1580 
1580 
1580 
1580 
1580 
1580 
1580 
1580 
1580 
1580 
1580 
1580 
1580 
1580 
1580 
1580 
1580 
1580 
1580 
1580 
1580 
1580 
1580 
1580 
1580 
1580 
1580 
1580 
1580 
1580 
1580 
1580 
1580 
1580 
1580 
1580 
1580 
1580 
1580 
1580 
1580 
1580 
1580 
1580 
1580 
1580 
1580 
1580 
1580 
1580 
1580 
1580 
1580 
1579 
1579 
1578 
1577 
1576 
1574 
1572 
1568 
1563 
1559 
1556 
1555 
1555 
1557 
1561 
1566 
1573 
1582 
1593 
1606 
1620 
1635 
1651 
1667 
1684 
1702 
1721 
1743 
1766 
1791 
1817 
1843 
1868 
1893 
1916 
1937 
1953 
1965 
1971 
1969 
1962 
1948 
1929 
1906 
1878 
1847 
1813 
1777 
1740 
1702 
1666 
1630 
1596 
1563 
1532 
1502 
1475 
1452 
1432 
1416 
1405 
1399 
1398 
1401 
1408 
1420 
1436 
1455 
1477 
1499 
1522 
1543 
1563 
1580 
1596 
1608 
1618 
1626 
1631 
1632 
1631 
1629 
1626 
1621 
1616 
1611 
1605 
1598 
1590 
1583 
1576 
1568 
1562 
1556 
1550 
1544 
1540 
1536 
1535 
1535 
1536 
1580 
1580 
1580 
1580 
1580 
1580 
1580 
1580 
1580 
1580 
1580 
1580 
1580 
1580 
1580 
1580 
1580 
1580 
1580 
1580 
1580 
1580 
1580 
1580 
1580 
1580 
1580 
1580 
1580 
1580 
1580 
1580 
1580 
1580 
1580 
1580 
1580 
1580 
1580 
1580 
1580 
1580 
1580 
1580 
1580 
1580 
1580 
1580 
1580 
1580 
1580 
1580 
1580 
1580 
1580 
1580 
1580 
1580 
1580 
1580 
1580 
1580 
1580 
1580 
1580 
1580 
1580 
1580 
1580 
1580 
1580 
1580 
1580 
1580 
1580 
1580 
1580 
1580 
1580 
1580 
1580 
1580 
1580 
1580 
1580 
1580 
1580 
1580 
1580 
1580 
1580 
1580 
1580 
1580 
1580 
1580 
1580 
1580 
1580 
1580 
1580 
1580 
1580 
1580 
1580 
1580 
1580 
1580 
1580 
1580 
1580 
1580 
1580 
1580 
1580 
1580 
1580 
1580 
1580 
1580 
1580 
1580 
1580 
1580 
1580 
1580 
1580 
1580 
1580 
1580 
1580 
1580 
1580 
1580 
1580 
1580 
1580 
1580 
1580 
1580 
1580 
1580 
1580 
1580 
1580 
1580 
1580 
1580 
1580 
1580 
1580 
1580 
1580 
1580 
1580 
1580 
1580 
1580 
1580 
1580 
1580 
1580 
1580 
1580 
1580 
1580 
1580 
1580 
1580 
1580 
1580 
1580 
1580 
1580 
1580 
1580 
1580 
1580 
1580 
1580 
1580 
1580 
1580 
1580 
1580 
1580 
1580 
1580 
1580 
1580 
1579 
1579 
1578 
1577 
1576 
1574 
1572 
1568 
1563 
1559 
1556 
1555 
1555 
1557 
1561 
1566 
1573 
1582 
1593 
1606 
1620 
1635 
1651 
1667 
1684 
1702 
1721 
1743 
1766 
1791 
1817 
1843 
1868 
1893 
1916 
1937 
1953 
1965 
1971 
1969 
1962 
1948 
1929 
1906 
1878 
1847 
1813 
1777 
1740 
1702 
1666 
1630 
1596 
1563 
1532 
1502 
1475 
1452 
1432 
1416 
1405 
1399 
1398 
1401 
1408 
1420 
1436 
1455 
1477 
1499 
1522 
1543 
1563 
1580 
1596 
1608 
1618 
1626 
1631 
1632 
1631 
1629 
1626 
1621 
1616 
1611 
1605 
1598 
1590 
1583 
1576 
1568 
1562 
1556 
1550 
1544 
1540 
1536 
1535 
1535 
1536 
